Motion Through Fluids Experiment Tue, Feb 28, 2023 3:38 PM
Time(sec)	Position(mm)
0.045	0.000
0.095	0.000
0.151	0.000
0.195	0.000
0.245	0.000
0.295	0.000
0.345	0.000
0.395	0.000
0.445	0.000
0.495	0.675
0.545	1.768
0.596	2.862
0.645	3.955
0.695	5.049
0.745	7.236
0.795	8.329
0.845	9.969
0.895	11.063
0.945	12.703
0.997	13.797
1.045	14.890
1.095	16.530
1.145	17.624
1.195	19.264
1.245	20.358
1.295	21.998
1.345	23.638
1.395	24.732
1.445	25.825
1.495	27.465
1.545	29.105
1.595	29.652
1.645	30.746
1.695	33.479
1.745	34.573
1.795	35.666
1.845	37.307
1.895	38.400
1.945	40.040
1.995	41.134
2.045	42.774
2.096	43.868
2.145	44.961
2.195	47.148
2.245	48.241
2.295	49.335
2.345	50.975
2.395	52.615
2.445	53.709
2.495	55.349
2.545	56.443
2.595	58.083
2.645	58.630
2.695	60.817
2.745	61.910
2.795	63.550
2.846	64.644
2.895	66.284
2.945	67.378
2.996	69.018
3.045	70.111
3.095	71.751
3.145	72.845
3.195	74.485
3.245	75.579
3.295	77.219
3.345	78.312
3.395	79.953
3.445	81.046
3.495	82.686
3.545	83.780
3.595	85.420
3.645	86.514
3.695	88.154
3.745	89.794
3.795	90.887
3.845	92.528
3.895	93.621
3.945	95.261
3.995	96.355
4.045	97.995
4.095	99.089
4.145	100.729
4.195	101.822
4.245	102.916
4.295	104.556
4.345	105.650
4.395	107.290
4.445	108.383
4.495	110.024
4.545	111.117
4.595	112.757
4.645	113.851
4.695	115.491
4.745	116.584
4.795	118.225
4.845	119.318
4.895	120.958
4.945	122.052
4.995	123.692
5.045	124.786
5.095	126.426
5.145	127.519
5.195	129.160
5.245	130.800
5.295	131.893
5.345	133.533
5.395	134.627
5.445	136.267
5.495	137.361
5.545	138.454
5.595	140.094
5.645	141.188
5.695	142.828
5.745	143.922
5.795	145.562
5.845	146.655
5.895	148.296
5.945	149.389
5.995	151.029
6.045	152.670
6.095	153.763
6.145	155.403
6.195	156.497
6.245	158.137
6.295	159.230
6.345	160.871
6.395	161.964
6.445	163.604
6.495	164.698
6.545	166.338
6.595	167.432
6.645	169.072
6.695	170.165
6.745	171.806
6.795	172.899
6.845	174.539
6.895	175.633
6.945	177.273
6.995	178.366
7.045	180.007
7.095	181.100
7.145	182.740
7.195	183.834
7.245	184.927
7.295	186.568
7.345	188.208
7.395	189.301
7.445	190.395
7.495	192.035
7.545	193.129
7.595	194.769
7.645	194.769
7.695	197.502
7.745	198.596
7.795	200.236
7.845	201.330
7.895	202.970
7.945	204.063
7.995	205.704
8.045	206.797
8.095	208.437
8.145	209.531
8.195	211.171
8.245	212.265
8.295	213.905
8.345	214.998
8.395	216.092
8.445	217.732
8.495	218.825
8.545	220.466
8.595	221.559
8.645	223.199
8.695	224.293
8.745	225.933
8.795	227.027
8.845	228.120
8.895	229.760
8.945	230.854
8.996	232.494
9.045	233.588
9.095	235.228
9.145	236.321
9.195	237.962
9.245	239.055
9.295	240.695
9.345	241.789
9.395	242.882
9.445	244.522
9.495	245.616
9.545	247.256
9.595	248.350
9.645	249.443
9.695	251.083
9.745	251.630
9.795	253.270
9.845	254.364
9.895	254.911
9.945	255.457
9.995	0.000
10.045	0.000
10.095	0.000
10.145	0.000
10.195	0.000
10.245	0.000
10.295	0.000
10.345	0.000
10.395	0.000
10.445	0.000
10.495	0.000
10.545	0.000
10.595	0.000
10.645	0.000
10.695	0.000
10.745	0.000
10.795	0.000
10.845	0.000
10.895	0.000
10.945	0.000
10.995	0.000
11.045	0.000
11.095	0.000
11.145	0.000
11.195	0.000
11.245	0.000
11.295	0.000
11.345	0.000
11.395	0.000
11.445	0.000
11.495	0.000
11.545	0.000
11.595	0.000
11.645	0.000
11.695	0.000
11.745	0.000
11.795	0.000
11.845	0.000
11.895	0.000
11.945	0.000
11.995	0.000
12.045	0.000
12.095	0.000
12.145	0.000
12.195	0.000
12.245	0.000
12.295	0.000
12.345	0.000
12.395	0.000
12.445	0.000
12.495	0.000
12.545	0.000
12.595	0.000
12.645	0.000
12.695	0.000
12.745	0.000
12.795	0.000
12.845	0.000
12.895	0.000
12.945	0.000
12.995	0.000
13.045	0.000
13.096	0.000
13.145	0.000
13.195	0.000
13.245	0.000
13.295	0.000
13.345	0.000
13.395	0.000
13.445	0.000
13.495	0.000
13.545	0.000
13.595	0.000
13.645	0.000
13.695	0.000
13.745	0.000
13.795	0.000
13.845	0.000
13.895	0.000
13.945	0.000
13.995	0.000
14.045	0.000
14.095	0.000
14.145	0.000
14.195	0.000
14.245	0.000
14.295	0.000
14.345	0.000
14.395	0.000
14.445	0.000
14.495	0.000
14.545	0.000
14.595	0.000
14.645	0.000
14.695	0.000
14.745	0.000
14.795	0.000
14.845	0.000
14.895	0.000
14.945	0.000
14.995	0.000
15.045	0.000
15.095	0.000
15.145	0.000
15.195	0.000
15.245	0.000
15.295	0.000
15.345	0.000
15.395	0.000
15.445	0.000
15.495	0.000
15.545	0.000
15.595	0.000
15.645	0.000
15.695	0.000
15.745	0.000
15.795	0.000
15.845	0.000
15.895	0.000
15.945	0.000
15.995	0.000
16.045	0.000
16.095	0.000
16.145	0.000
16.195	0.000
16.245	0.000
16.295	0.000
16.345	0.000
16.395	0.000
16.445	0.000
16.495	0.000
16.546	0.000
16.595	0.000
16.645	0.000
16.695	0.000
16.745	0.000
16.795	0.000
16.845	0.000
16.895	0.000
16.945	0.000
16.995	0.000
17.045	0.000
17.095	0.000
17.145	0.000
17.195	0.000